3.272472073370426227e+00
3.699805522686800519e+00
4.079657477634689222e+00
3.652324028318314486e+00
1.800545747947358777e+00
8.509158605776380169e-01
3.761009168927776369e-01
-1.048343914161803392e+00
-1.903010812794552420e+00
-2.852640700164272847e+00
-3.992196565007937625e+00
-3.564863115691562889e+00
-2.615233228321842684e+00
-2.045455295900009851e+00
-1.855529318426066165e+00
-1.855529318426066165e+00
-1.665603340952122036e+00
-2.140418284636982360e+00
-2.852640700164272847e+00
-2.662714722690328717e+00
-1.665603340952122036e+00
-6.684919592139153544e-01
-6.684919592139153544e-01
-3.751038055110458239e-03
-3.361214986345127387e-01
-4.785659817399710025e-01
-6.210104648454292109e-01
-1.238269891635747744e+00
-1.190788397267261711e+00
-1.048343914161803392e+00
-9.058994310563451835e-01
-6.210104648454292109e-01
-1.461955211605686922e-01
-1.461955211605686922e-01
4.373045631337536127e-02
-3.361214986345127387e-01
-9.058994310563451835e-01
-1.333232880372719364e+00
-1.428195869109691651e+00
-9.533809254248312159e-01
-8.109364423193730076e-01
-4.785659817399710025e-01
-1.936770155290547801e-01
-3.751038055110458239e-03
4.710639056297498128e-01
3.761009168927776369e-01
-3.751038055110458239e-03
-1.475677363478177684e+00
-1.048343914161803392e+00
-1.143306902898775679e+00
-9.058994310563451835e-01
-5.260474761084570350e-01
2.811379281558057386e-01
4.710639056297498128e-01
7.084713774721799195e-01
4.373045631337536127e-02
-4.310844873714849146e-01
-6.210104648454292109e-01
-9.058994310563451835e-01
-7.159734535824013868e-01
-7.159734535824013868e-01
-1.936770155290547801e-01
2.811379281558057386e-01
8.034343662091520955e-01
5.185453999982359008e-01
4.235824112612637249e-01
-2.886400042660266507e-01
-7.159734535824013868e-01
-1.048343914161803392e+00
-1.428195869109691651e+00
-1.333232880372719364e+00
-9.871402679208261810e-02
3.286194225242915490e-01
6.135083887352077436e-01
9.458788493146101928e-01
2.811379281558057386e-01
-3.751038055110458239e-03
-3.836029930029988266e-01
-9.533809254248312159e-01
-6.210104648454292109e-01
-3.836029930029988266e-01
5.660268943667219332e-01
8.983973549461241603e-01
9.933603436830961142e-01
5.660268943667219332e-01
-3.751038055110458239e-03
-4.310844873714849146e-01
-6.684919592139153544e-01
-4.785659817399710025e-01
-8.109364423193730076e-01
-2.886400042660266507e-01
5.185453999982359008e-01
1.135804826788554323e+00
1.420693792999470517e+00
1.278249309894012420e+00
6.135083887352077436e-01
2.336564337873196784e-01
2.811379281558057386e-01
-6.210104648454292109e-01
-1.936770155290547801e-01
9.121195068186144228e-02
1.135804826788554323e+00
1.325730804262498452e+00
1.563138276104928615e+00
1.848027242315844809e+00
1.230767815525526387e+00
4.710639056297498128e-01
4.710639056297498128e-01
9.121195068186144228e-02
6.135083887352077436e-01
1.040841838051582258e+00
1.515656781736442804e+00
1.658101264841900679e+00
1.942990231052816874e+00
1.942990231052816874e+00
1.942990231052816874e+00
9.933603436830961142e-01
5.185453999982359008e-01
1.040841838051582258e+00
1.183286321157040355e+00
1.183286321157040355e+00
1.468175287367956772e+00
1.705582759210386934e+00
2.275360691632219101e+00
2.132916208526761004e+00
1.753064253578872966e+00
1.183286321157040355e+00
7.559528718406660630e-01
6.135083887352077436e-01
3.286194225242915490e-01
9.458788493146101928e-01
1.753064253578872966e+00
1.895508736684330842e+00
1.942990231052816874e+00
9.458788493146101928e-01
7.559528718406660630e-01
9.121195068186144228e-02
1.861749394188335904e-01
-3.751038055110458239e-03
9.121195068186144228e-02
4.235824112612637249e-01
9.458788493146101928e-01
1.088323332420068290e+00
7.559528718406660630e-01
3.286194225242915490e-01
1.386934450503475302e-01
-7.159734535824013868e-01
-6.210104648454292109e-01
-7.634549479508869751e-01
-7.159734535824013868e-01
-2.411585098975408681e-01
-2.411585098975408681e-01
-9.871402679208261810e-02
9.121195068186144228e-02
4.373045631337536127e-02
9.121195068186144228e-02
-2.886400042660266507e-01
-7.159734535824013868e-01
-7.159734535824013868e-01
-5.735289704769431784e-01
-9.871402679208261810e-02
-5.123253242359653709e-02
-3.751038055110458239e-03
2.336564337873196784e-01
9.121195068186144228e-02
-2.411585098975408681e-01
-6.210104648454292109e-01
-1.380714374741205397e+00
-8.584179366878591511e-01
-1.190788397267261711e+00
-6.210104648454292109e-01
4.373045631337536127e-02
-3.751038055110458239e-03
2.336564337873196784e-01
-2.411585098975408681e-01
-4.785659817399710025e-01
-1.190788397267261711e+00
-1.428195869109691651e+00
-1.570640352215149749e+00
-1.238269891635747744e+00
-3.361214986345127387e-01
2.811379281558057386e-01
5.185453999982359008e-01
1.861749394188335904e-01
2.336564337873196784e-01
-3.751038055110458239e-03
-1.095825408530289424e+00
-1.238269891635747744e+00
-1.190788397267261711e+00
-1.523158857846663716e+00
-9.533809254248312159e-01
-2.886400042660266507e-01
1.861749394188335904e-01
1.386934450503475302e-01
-1.936770155290547801e-01
-7.634549479508869751e-01
-7.634549479508869751e-01
-9.533809254248312159e-01
-1.143306902898775679e+00
-1.000862419793317359e+00
-6.684919592139153544e-01
-1.936770155290547801e-01
-3.361214986345127387e-01
1.861749394188335904e-01
9.121195068186144228e-02
-3.836029930029988266e-01
-5.260474761084570350e-01
-9.058994310563451835e-01
-8.109364423193730076e-01
-5.260474761084570350e-01
-1.936770155290547801e-01
1.861749394188335904e-01
5.660268943667219332e-01
-1.936770155290547801e-01
-2.411585098975408681e-01
-4.785659817399710025e-01
-1.000862419793317359e+00
-6.684919592139153544e-01
-5.735289704769431784e-01
-5.260474761084570350e-01
-1.461955211605686922e-01
9.121195068186144228e-02
8.034343662091520955e-01
4.235824112612637249e-01
9.121195068186144228e-02
-4.785659817399710025e-01
-1.048343914161803392e+00
-1.095825408530289424e+00
-1.095825408530289424e+00
-9.058994310563451835e-01
-1.461955211605686922e-01
-5.123253242359653709e-02
3.761009168927776369e-01
3.286194225242915490e-01
9.121195068186144228e-02
-4.310844873714849146e-01
-4.310844873714849146e-01
-4.785659817399710025e-01
-5.260474761084570350e-01
4.373045631337536127e-02
5.185453999982359008e-01
2.811379281558057386e-01
9.121195068186144228e-02
1.861749394188335904e-01
3.286194225242915490e-01
-5.735289704769431784e-01
-1.380714374741205397e+00
-1.760566329689094101e+00
-9.533809254248312159e-01
-4.785659817399710025e-01
4.235824112612637249e-01
7.084713774721799195e-01
4.710639056297498128e-01
4.710639056297498128e-01
1.386934450503475302e-01
-1.000862419793317359e+00
-1.190788397267261711e+00
-9.058994310563451835e-01
-1.285751386004233776e+00
-5.735289704769431784e-01
1.861749394188335904e-01
3.286194225242915490e-01
-3.751038055110458239e-03
-1.461955211605686922e-01
-9.871402679208261810e-02
-7.159734535824013868e-01
-1.000862419793317359e+00
-8.109364423193730076e-01
-8.109364423193730076e-01
-9.533809254248312159e-01
2.336564337873196784e-01
4.373045631337536127e-02
3.286194225242915490e-01
4.710639056297498128e-01
4.373045631337536127e-02
-8.584179366878591511e-01
-1.048343914161803392e+00
-9.058994310563451835e-01
-1.048343914161803392e+00
-6.684919592139153544e-01
-5.123253242359653709e-02
-2.886400042660266507e-01
4.373045631337536127e-02
-4.785659817399710025e-01
-6.210104648454292109e-01
-8.109364423193730076e-01
-1.238269891635747744e+00
-9.533809254248312159e-01
-8.584179366878591511e-01
-2.886400042660266507e-01
2.336564337873196784e-01
8.983973549461241603e-01
3.286194225242915490e-01
3.761009168927776369e-01
2.336564337873196784e-01
-5.260474761084570350e-01
-9.058994310563451835e-01
-1.523158857846663716e+00
-1.380714374741205397e+00
-8.109364423193730076e-01
-1.461955211605686922e-01
4.710639056297498128e-01
6.135083887352077436e-01
5.660268943667219332e-01
4.710639056297498128e-01
-3.361214986345127387e-01
-1.143306902898775679e+00
-1.285751386004233776e+00
-8.584179366878591511e-01
-4.310844873714849146e-01
4.373045631337536127e-02
-3.361214986345127387e-01
4.373045631337536127e-02
4.373045631337536127e-02
-5.735289704769431784e-01
-9.058994310563451835e-01
-1.190788397267261711e+00
-1.333232880372719364e+00
-9.058994310563451835e-01
-1.461955211605686922e-01
-3.751038055110458239e-03
-9.871402679208261810e-02
9.121195068186144228e-02
-1.461955211605686922e-01
-4.310844873714849146e-01
-6.684919592139153544e-01
-1.238269891635747744e+00
-9.533809254248312159e-01
-1.048343914161803392e+00
-2.886400042660266507e-01
2.811379281558057386e-01
5.660268943667219332e-01
2.336564337873196784e-01
-5.123253242359653709e-02
-9.871402679208261810e-02
-1.000862419793317359e+00
-5.260474761084570350e-01
-5.260474761084570350e-01
-1.048343914161803392e+00
-3.361214986345127387e-01
9.121195068186144228e-02
-5.123253242359653709e-02
-9.871402679208261810e-02
-1.461955211605686922e-01
-9.871402679208261810e-02
-1.238269891635747744e+00
-1.285751386004233776e+00
-1.048343914161803392e+00
-6.210104648454292109e-01
1.386934450503475302e-01
4.373045631337536127e-02
4.235824112612637249e-01
3.761009168927776369e-01
1.386934450503475302e-01
-4.785659817399710025e-01
-8.584179366878591511e-01
-1.095825408530289424e+00
-4.310844873714849146e-01
-7.634549479508869751e-01
-5.735289704769431784e-01
-3.751038055110458239e-03
4.373045631337536127e-02
-5.123253242359653709e-02
-5.123253242359653709e-02
-5.260474761084570350e-01
-1.190788397267261711e+00
-1.333232880372719364e+00
-1.143306902898775679e+00
-5.260474761084570350e-01
4.710639056297498128e-01
3.761009168927776369e-01
3.761009168927776369e-01
2.811379281558057386e-01
-2.886400042660266507e-01
-9.533809254248312159e-01
-7.634549479508869751e-01
-6.684919592139153544e-01
-1.713084835320608068e+00
-9.533809254248312159e-01
-9.871402679208261810e-02
-5.123253242359653709e-02
3.761009168927776369e-01
3.761009168927776369e-01
4.373045631337536127e-02
-5.260474761084570350e-01
-7.159734535824013868e-01
-1.000862419793317359e+00
-1.048343914161803392e+00
-4.310844873714849146e-01
4.710639056297498128e-01
3.761009168927776369e-01
3.286194225242915490e-01
-1.936770155290547801e-01
3.286194225242915490e-01
-3.361214986345127387e-01
-7.159734535824013868e-01
-8.584179366878591511e-01
-8.584179366878591511e-01
-2.886400042660266507e-01
-3.751038055110458239e-03
4.235824112612637249e-01
7.084713774721799195e-01
3.286194225242915490e-01
4.235824112612637249e-01
-6.210104648454292109e-01
-5.260474761084570350e-01
-6.684919592139153544e-01
-5.735289704769431784e-01
-5.123253242359653709e-02
4.235824112612637249e-01
1.861749394188335904e-01
1.861749394188335904e-01
8.034343662091520955e-01
4.710639056297498128e-01
-1.461955211605686922e-01
-9.058994310563451835e-01
-9.058994310563451835e-01
-8.584179366878591511e-01
-3.751038055110458239e-03
6.609898831036938871e-01
1.135804826788554323e+00
1.278249309894012420e+00
9.121195068186144228e-02
3.286194225242915490e-01
-4.310844873714849146e-01
-2.886400042660266507e-01
-4.310844873714849146e-01
-1.570640352215149749e+00
-7.634549479508869751e-01
-5.123253242359653709e-02
3.286194225242915490e-01
4.373045631337536127e-02
-3.836029930029988266e-01
-4.310844873714849146e-01
-1.143306902898775679e+00
-1.048343914161803392e+00
-1.190788397267261711e+00
-1.000862419793317359e+00
-3.836029930029988266e-01
9.121195068186144228e-02
2.336564337873196784e-01
1.861749394188335904e-01
1.861749394188335904e-01
9.121195068186144228e-02
-6.210104648454292109e-01
-1.665603340952122036e+00
-1.190788397267261711e+00
-9.058994310563451835e-01
-4.310844873714849146e-01
-9.871402679208261810e-02
-5.123253242359653709e-02
3.761009168927776369e-01
3.761009168927776369e-01
-5.735289704769431784e-01
-9.533809254248312159e-01
-1.333232880372719364e+00
-1.428195869109691651e+00
-1.000862419793317359e+00
-4.785659817399710025e-01
-6.210104648454292109e-01
-1.461955211605686922e-01
7.559528718406660630e-01
7.084713774721799195e-01
6.135083887352077436e-01
8.509158605776380169e-01
1.230767815525526387e+00
2.037953219789788939e+00
2.655212646580107805e+00
4.127138972003175255e+00
4.649435410056520723e+00
4.459509432582577482e+00
3.652324028318314486e+00
2.417805174737677198e+00
1.183286321157040355e+00
6.609898831036938871e-01
3.761009168927776369e-01
-4.785659817399710025e-01
-1.380714374741205397e+00
-2.187899779005468393e+00
-1.950492307163038008e+00
-1.523158857846663716e+00
-2.045455295900009851e+00
-1.903010812794552420e+00
-1.997973801531524041e+00
-2.615233228321842684e+00
-2.615233228321842684e+00
-2.330344262110926490e+00
-2.330344262110926490e+00
-1.285751386004233776e+00
-6.684919592139153544e-01
3.286194225242915490e-01
-5.123253242359653709e-02
2.336564337873196784e-01
-2.411585098975408681e-01
-1.428195869109691651e+00
-1.095825408530289424e+00
-7.159734535824013868e-01
-7.634549479508869751e-01
1.861749394188335904e-01
9.121195068186144228e-02
5.660268943667219332e-01
5.185453999982359008e-01
6.135083887352077436e-01
-9.871402679208261810e-02
-8.109364423193730076e-01
-1.333232880372719364e+00
-1.000862419793317359e+00
-3.836029930029988266e-01
2.811379281558057386e-01
2.811379281558057386e-01
7.084713774721799195e-01
5.660268943667219332e-01
4.373045631337536127e-02
-5.735289704769431784e-01
-1.000862419793317359e+00
-9.058994310563451835e-01
-4.785659817399710025e-01
-5.123253242359653709e-02
4.235824112612637249e-01
6.609898831036938871e-01
4.710639056297498128e-01
8.034343662091520955e-01
8.983973549461241603e-01
-1.461955211605686922e-01
-5.260474761084570350e-01
-4.785659817399710025e-01
-1.285751386004233776e+00
-2.411585098975408681e-01
2.336564337873196784e-01
7.084713774721799195e-01
8.034343662091520955e-01
6.135083887352077436e-01
7.559528718406660630e-01
-5.123253242359653709e-02
-1.936770155290547801e-01
-3.361214986345127387e-01
-4.785659817399710025e-01
-3.361214986345127387e-01
-9.871402679208261810e-02
5.185453999982359008e-01
9.458788493146101928e-01
5.660268943667219332e-01
7.084713774721799195e-01
-3.751038055110458239e-03
-1.936770155290547801e-01
-3.836029930029988266e-01
-5.735289704769431784e-01
-9.871402679208261810e-02
9.458788493146101928e-01
7.084713774721799195e-01
1.230767815525526387e+00
1.230767815525526387e+00
1.230767815525526387e+00
-2.886400042660266507e-01
4.373045631337536127e-02
-3.836029930029988266e-01
-3.361214986345127387e-01
2.336564337873196784e-01
6.135083887352077436e-01
1.183286321157040355e+00
1.373212298630984485e+00
1.420693792999470517e+00
1.278249309894012420e+00
1.040841838051582258e+00
4.235824112612637249e-01
-1.461955211605686922e-01
4.373045631337536127e-02
5.660268943667219332e-01
1.088323332420068290e+00
1.753064253578872966e+00
1.515656781736442804e+00
1.515656781736442804e+00
9.933603436830961142e-01
6.609898831036938871e-01
6.609898831036938871e-01
8.034343662091520955e-01
1.040841838051582258e+00
1.658101264841900679e+00
2.180397702895247036e+00
2.322842186000705578e+00
2.037953219789788939e+00
1.895508736684330842e+00
1.800545747947358777e+00
1.468175287367956772e+00
7.559528718406660630e-01
9.933603436830961142e-01
1.278249309894012420e+00
1.135804826788554323e+00
1.658101264841900679e+00
2.512768163474649263e+00
2.370323680369191166e+00
2.275360691632219101e+00
1.990471725421303129e+00
1.563138276104928615e+00
1.468175287367956772e+00
1.135804826788554323e+00
7.084713774721799195e-01
1.468175287367956772e+00
2.085434714158275415e+00
2.370323680369191166e+00
2.512768163474649263e+00
2.702694140948593837e+00
1.942990231052816874e+00
4.373045631337536127e-02
2.811379281558057386e-01
3.286194225242915490e-01
5.185453999982359008e-01
8.983973549461241603e-01
1.325730804262498452e+00
1.468175287367956772e+00
1.325730804262498452e+00
1.088323332420068290e+00
4.710639056297498128e-01
-1.936770155290547801e-01
-5.735289704769431784e-01
-2.886400042660266507e-01
-2.886400042660266507e-01
1.861749394188335904e-01
4.235824112612637249e-01
8.034343662091520955e-01
1.040841838051582258e+00
3.761009168927776369e-01
-5.123253242359653709e-02
-6.684919592139153544e-01
-8.584179366878591511e-01
-6.210104648454292109e-01
-5.260474761084570350e-01
-9.871402679208261810e-02
3.286194225242915490e-01
9.458788493146101928e-01
5.660268943667219332e-01
3.286194225242915490e-01
-1.461955211605686922e-01
-6.684919592139153544e-01
-4.310844873714849146e-01
-4.310844873714849146e-01
-4.785659817399710025e-01
-2.886400042660266507e-01
-5.123253242359653709e-02
3.761009168927776369e-01
3.761009168927776369e-01
4.710639056297498128e-01
-4.310844873714849146e-01
-1.143306902898775679e+00
-1.428195869109691651e+00
-9.058994310563451835e-01
-2.886400042660266507e-01
-1.936770155290547801e-01
5.185453999982359008e-01
7.084713774721799195e-01
5.660268943667219332e-01
3.761009168927776369e-01
-4.785659817399710025e-01
-8.584179366878591511e-01
-9.058994310563451835e-01
-9.058994310563451835e-01
-9.058994310563451835e-01
-5.123253242359653709e-02
1.386934450503475302e-01
5.185453999982359008e-01
4.710639056297498128e-01
2.811379281558057386e-01
-3.361214986345127387e-01
-6.684919592139153544e-01
-1.000862419793317359e+00
-1.095825408530289424e+00
-4.310844873714849146e-01
5.185453999982359008e-01
8.509158605776380169e-01
7.559528718406660630e-01
3.286194225242915490e-01
1.861749394188335904e-01
-3.836029930029988266e-01
-8.109364423193730076e-01
-9.533809254248312159e-01
-1.048343914161803392e+00
-5.260474761084570350e-01
4.235824112612637249e-01
5.660268943667219332e-01
5.185453999982359008e-01
4.235824112612637249e-01
-3.751038055110458239e-03
-3.361214986345127387e-01
-7.159734535824013868e-01
-1.048343914161803392e+00
-6.684919592139153544e-01
-1.936770155290547801e-01
2.811379281558057386e-01
5.660268943667219332e-01
1.230767815525526387e+00
1.515656781736442804e+00
6.135083887352077436e-01
-4.310844873714849146e-01
-6.684919592139153544e-01
-7.159734535824013868e-01
-4.310844873714849146e-01
-6.684919592139153544e-01
5.185453999982359008e-01
6.609898831036938871e-01
8.983973549461241603e-01
4.710639056297498128e-01
-3.751038055110458239e-03
-4.785659817399710025e-01
-7.634549479508869751e-01
-6.210104648454292109e-01
-7.159734535824013868e-01
-3.361214986345127387e-01
2.336564337873196784e-01
4.710639056297498128e-01
8.509158605776380169e-01
8.509158605776380169e-01
1.861749394188335904e-01
-7.159734535824013868e-01
-1.095825408530289424e+00
-8.584179366878591511e-01
-7.159734535824013868e-01
-2.411585098975408681e-01
5.660268943667219332e-01
5.185453999982359008e-01
8.983973549461241603e-01
3.286194225242915490e-01
-2.886400042660266507e-01
-7.634549479508869751e-01
-8.109364423193730076e-01
-9.533809254248312159e-01
-9.533809254248312159e-01
-5.123253242359653709e-02
-1.461955211605686922e-01
3.761009168927776369e-01
5.660268943667219332e-01
8.983973549461241603e-01
3.761009168927776369e-01
-5.123253242359653709e-02
-5.735289704769431784e-01
-6.684919592139153544e-01
-3.361214986345127387e-01
-9.871402679208261810e-02
4.373045631337536127e-02
7.084713774721799195e-01
2.811379281558057386e-01
2.336564337873196784e-01
-5.735289704769431784e-01
-5.735289704769431784e-01
-9.058994310563451835e-01
-9.058994310563451835e-01
-7.634549479508869751e-01
-9.871402679208261810e-02
3.286194225242915490e-01
4.710639056297498128e-01
3.286194225242915490e-01
-1.461955211605686922e-01
-9.871402679208261810e-02
-3.361214986345127387e-01
-1.048343914161803392e+00
-9.058994310563451835e-01
-8.109364423193730076e-01
-2.411585098975408681e-01
4.710639056297498128e-01
5.185453999982359008e-01
8.509158605776380169e-01
2.811379281558057386e-01
-1.936770155290547801e-01
-5.735289704769431784e-01
-7.634549479508869751e-01
-7.634549479508869751e-01
-6.210104648454292109e-01
-4.310844873714849146e-01
-3.751038055110458239e-03
2.336564337873196784e-01
2.336564337873196784e-01
2.336564337873196784e-01
-2.411585098975408681e-01
-3.361214986345127387e-01
-7.159734535824013868e-01
1.861749394188335904e-01
-7.159734535824013868e-01
-4.785659817399710025e-01
2.811379281558057386e-01
3.286194225242915490e-01
1.861749394188335904e-01
1.386934450503475302e-01
-2.411585098975408681e-01
-6.684919592139153544e-01
-2.411585098975408681e-01
-8.109364423193730076e-01
-8.584179366878591511e-01
-3.836029930029988266e-01
9.121195068186144228e-02
3.761009168927776369e-01
4.235824112612637249e-01
1.386934450503475302e-01
-2.886400042660266507e-01
-3.836029930029988266e-01
-8.109364423193730076e-01
-9.533809254248312159e-01
-6.684919592139153544e-01
1.386934450503475302e-01
4.710639056297498128e-01
6.135083887352077436e-01
6.609898831036938871e-01
2.811379281558057386e-01
-4.785659817399710025e-01
-8.584179366878591511e-01
-6.210104648454292109e-01
-6.684919592139153544e-01
-2.886400042660266507e-01
9.121195068186144228e-02
5.660268943667219332e-01
1.183286321157040355e+00
6.135083887352077436e-01
3.286194225242915490e-01
-2.886400042660266507e-01
-5.735289704769431784e-01
-5.735289704769431784e-01
-1.000862419793317359e+00
-8.584179366878591511e-01
-2.886400042660266507e-01
3.286194225242915490e-01
8.509158605776380169e-01
1.040841838051582258e+00
4.235824112612637249e-01
-3.836029930029988266e-01
-6.684919592139153544e-01
-6.684919592139153544e-01
-5.260474761084570350e-01
-2.886400042660266507e-01
9.121195068186144228e-02
3.761009168927776369e-01
7.084713774721799195e-01
3.286194225242915490e-01
-9.871402679208261810e-02
-4.310844873714849146e-01
-9.533809254248312159e-01
-8.584179366878591511e-01
-4.785659817399710025e-01
-4.310844873714849146e-01
3.761009168927776369e-01
9.458788493146101928e-01
7.084713774721799195e-01
-3.751038055110458239e-03
3.761009168927776369e-01
9.121195068186144228e-02
9.121195068186144228e-02
1.386934450503475302e-01
-5.260474761084570350e-01
-5.123253242359653709e-02
7.559528718406660630e-01
9.933603436830961142e-01
4.235824112612637249e-01
5.660268943667219332e-01
6.135083887352077436e-01
1.386934450503475302e-01
-9.871402679208261810e-02
-2.886400042660266507e-01
-2.411585098975408681e-01
-3.751038055110458239e-03
9.933603436830961142e-01
1.278249309894012420e+00
1.563138276104928615e+00
1.040841838051582258e+00
9.121195068186144228e-02
-1.936770155290547801e-01
-5.260474761084570350e-01
-1.000862419793317359e+00
-8.109364423193730076e-01
-3.751038055110458239e-03
6.609898831036938871e-01
7.559528718406660630e-01
1.278249309894012420e+00
7.559528718406660630e-01
9.121195068186144228e-02
-3.836029930029988266e-01
-5.735289704769431784e-01
-5.735289704769431784e-01
-5.735289704769431784e-01
9.121195068186144228e-02
1.861749394188335904e-01
4.710639056297498128e-01
7.559528718406660630e-01
2.336564337873196784e-01
-3.751038055110458239e-03
-6.210104648454292109e-01
-1.380714374741205397e+00
-1.190788397267261711e+00
-9.058994310563451835e-01
3.286194225242915490e-01
6.135083887352077436e-01
1.088323332420068290e+00
9.933603436830961142e-01
4.710639056297498128e-01
-3.751038055110458239e-03
-2.886400042660266507e-01
-9.871402679208261810e-02
-3.836029930029988266e-01
-7.159734535824013868e-01
-7.634549479508869751e-01
1.861749394188335904e-01
6.135083887352077436e-01
6.135083887352077436e-01
-3.751038055110458239e-03
-7.634549479508869751e-01
-1.190788397267261711e+00
-9.058994310563451835e-01
-1.143306902898775679e+00
-2.886400042660266507e-01
2.336564337873196784e-01
6.135083887352077436e-01
1.563138276104928615e+00
2.037953219789788939e+00
2.275360691632219101e+00
2.845138624054051935e+00
2.940101612791023555e+00
3.557361039581341977e+00
3.889731500160744648e+00
3.937212994529230681e+00
4.222101960740146431e+00
3.272472073370426227e+00
1.800545747947358777e+00
1.515656781736442804e+00
1.753064253578872966e+00
2.811379281558057386e-01
-1.048343914161803392e+00
-2.330344262110926490e+00
-2.900122194532758879e+00
-2.377825756479412522e+00
-1.380714374741205397e+00
-1.380714374741205397e+00
-1.665603340952122036e+00
-1.570640352215149749e+00
-1.380714374741205397e+00
-1.760566329689094101e+00
-1.713084835320608068e+00
-1.285751386004233776e+00
-1.285751386004233776e+00
-8.109364423193730076e-01
-3.836029930029988266e-01
3.761009168927776369e-01
8.509158605776380169e-01
5.660268943667219332e-01
9.121195068186144228e-02
-2.886400042660266507e-01
-7.159734535824013868e-01
-9.058994310563451835e-01
-3.836029930029988266e-01
-2.886400042660266507e-01
3.286194225242915490e-01
4.235824112612637249e-01
8.509158605776380169e-01
7.084713774721799195e-01
3.286194225242915490e-01
2.811379281558057386e-01
1.861749394188335904e-01
3.286194225242915490e-01
-2.886400042660266507e-01
-2.411585098975408681e-01
3.286194225242915490e-01
8.509158605776380169e-01
9.933603436830961142e-01
6.609898831036938871e-01
2.336564337873196784e-01
2.336564337873196784e-01
3.286194225242915490e-01
-2.886400042660266507e-01
-4.785659817399710025e-01
-9.871402679208261810e-02
5.660268943667219332e-01
8.034343662091520955e-01
1.705582759210386934e+00
1.230767815525526387e+00
8.983973549461241603e-01
3.761009168927776369e-01
4.373045631337536127e-02
-9.871402679208261810e-02
-4.785659817399710025e-01
-3.361214986345127387e-01
7.084713774721799195e-01
6.135083887352077436e-01
1.040841838051582258e+00
1.278249309894012420e+00
5.660268943667219332e-01
5.185453999982359008e-01
-3.751038055110458239e-03
4.373045631337536127e-02
2.336564337873196784e-01
4.373045631337536127e-02
7.559528718406660630e-01
1.468175287367956772e+00
1.515656781736442804e+00
1.373212298630984485e+00
1.040841838051582258e+00
3.761009168927776369e-01
2.336564337873196784e-01
2.336564337873196784e-01
2.336564337873196784e-01
2.336564337873196784e-01
6.609898831036938871e-01
1.705582759210386934e+00
1.563138276104928615e+00
1.515656781736442804e+00
9.933603436830961142e-01
