5.435783934281155361e+00
5.278302579172624576e+00
5.081450885286961316e+00
4.569636481184235599e+00
3.742859366864449644e+00
3.506637334201653911e+00
2.876711913767530771e+00
1.931823783116346505e+00
7.113432810252333649e-01
-3.122855271802164601e-01
-1.454025351717064041e+00
-2.044580433374054262e+00
-2.123321110928319655e+00
-1.847728739488390781e+00
-1.375284674162798648e+00
-7.059889149515432560e-01
-4.303965435116144933e-01
-4.303965435116144933e-01
-3.669315574028765570e-02
-1.548041720716857028e-01
-6.666185761744105598e-01
-7.847295925058086485e-01
-9.028406088372066263e-01
-9.028406088372066263e-01
-6.666185761744105598e-01
-1.941745108488183713e-01
-1.154338332945530204e-01
8.141786059111040530e-02
-3.516558659573491563e-01
-7.059889149515432560e-01
-7.059889149515432560e-01
-1.060321963945737300e+00
-8.634702700600740410e-01
-7.453592537286759523e-01
-5.878778986201452783e-01
2.677183036845029278e-03
1.601585381453757562e-01
1.995288769225084524e-01
-1.941745108488183713e-01
-2.729151884030837083e-01
-4.697668822887471896e-01
-9.815812863914720188e-01
-9.815812863914720188e-01
-6.666185761744105598e-01
-5.878778986201452783e-01
2.677183036845029278e-03
3.570102320310392097e-01
2.388992156996411209e-01
1.601585381453757562e-01
-1.548041720716857028e-01
-6.272482373972779746e-01
-5.878778986201452783e-01
-5.878778986201452783e-01
-4.303965435116144933e-01
-2.335448496259510953e-01
1.995288769225084524e-01
4.357509095853045467e-01
3.570102320310392097e-01
1.995288769225084524e-01
-3.669315574028765570e-02
-4.697668822887471896e-01
-4.303965435116144933e-01
-4.303965435116144933e-01
-6.272482373972779746e-01
-3.122855271802164601e-01
2.388992156996411209e-01
5.144915871395698836e-01
3.570102320310392097e-01
4.204752181397770905e-02
2.677183036845029278e-03
-1.548041720716857028e-01
-3.516558659573491563e-01
-2.729151884030837083e-01
-1.548041720716857028e-01
4.357509095853045467e-01
6.326026034709678614e-01
7.507136198023659501e-01
7.900839585794986464e-01
5.538619259167025799e-01
3.176398932539064579e-01
1.207881993682430738e-01
8.141786059111040530e-02
1.207881993682430738e-01
1.207881993682430738e-01
4.751212483624372429e-01
7.113432810252333649e-01
9.869356524651621276e-01
1.223157685127958194e+00
1.065676330019427631e+00
4.751212483624372429e-01
1.207881993682430738e-01
3.176398932539064579e-01
3.570102320310392097e-01
5.538619259167025799e-01
1.105046668796560327e+00
1.459379717790754372e+00
1.695601750453550327e+00
1.774342428007815720e+00
1.616861072899285157e+00
1.026305991242294935e+00
7.900839585794986464e-01
1.223157685127958194e+00
1.341268701459356283e+00
1.459379717790754372e+00
1.734972089230683023e+00
1.813712766784948416e+00
1.853083105562081112e+00
2.010564460670611897e+00
2.246786493333408075e+00
1.734972089230683023e+00
1.341268701459356283e+00
1.420009379013621453e+00
1.538120395345019764e+00
1.695601750453550327e+00
2.128675477002010208e+00
2.207416154556275600e+00
2.010564460670611897e+00
1.971194121893479201e+00
2.089305138224877290e+00
1.774342428007815720e+00
1.498750056567887068e+00
1.262528023905090890e+00
1.105046668796560327e+00
1.262528023905090890e+00
1.616861072899285157e+00
1.577490734122152460e+00
1.656231411676417631e+00
1.538120395345019764e+00
1.459379717790754372e+00
8.294542973566313426e-01
6.326026034709678614e-01
3.570102320310392097e-01
2.388992156996411209e-01
1.207881993682430738e-01
6.719729422481005576e-01
9.475653136880294314e-01
9.475653136880294314e-01
7.507136198023659501e-01
3.176398932539064579e-01
-7.606349451742032419e-02
-1.548041720716857028e-01
-3.910262047344817415e-01
-3.910262047344817415e-01
-3.122855271802164601e-01
4.204752181397770905e-02
2.388992156996411209e-01
3.176398932539064579e-01
1.995288769225084524e-01
-7.606349451742032419e-02
-4.697668822887471896e-01
-5.091372210658798858e-01
-6.272482373972779746e-01
-8.240999312829413448e-01
-6.272482373972779746e-01
2.677183036845029278e-03
1.995288769225084524e-01
1.995288769225084524e-01
-1.941745108488183713e-01
-3.516558659573491563e-01
-7.453592537286759523e-01
-8.240999312829413448e-01
-8.240999312829413448e-01
-6.272482373972779746e-01
-6.272482373972779746e-01
-2.729151884030837083e-01
1.207881993682430738e-01
1.995288769225084524e-01
-2.335448496259510953e-01
-4.303965435116144933e-01
-7.059889149515432560e-01
-8.240999312829413448e-01
-7.847295925058086485e-01
-7.847295925058086485e-01
-7.453592537286759523e-01
-1.941745108488183713e-01
1.207881993682430738e-01
4.751212483624372429e-01
1.995288769225084524e-01
-3.910262047344817415e-01
-1.296543996608533478e+00
-8.240999312829413448e-01
-5.878778986201452783e-01
-5.091372210658798858e-01
-6.666185761744105598e-01
-2.335448496259510953e-01
2.388992156996411209e-01
2.782695544767737617e-01
1.207881993682430738e-01
1.207881993682430738e-01
-4.697668822887471896e-01
-8.634702700600740410e-01
-1.099692302722869997e+00
-7.847295925058086485e-01
-1.941745108488183713e-01
1.995288769225084524e-01
2.782695544767737617e-01
4.357509095853045467e-01
3.570102320310392097e-01
1.207881993682430738e-01
-1.154338332945530204e-01
-9.815812863914720188e-01
-8.240999312829413448e-01
-6.666185761744105598e-01
-3.122855271802164601e-01
2.677183036845029278e-03
1.207881993682430738e-01
1.207881993682430738e-01
1.995288769225084524e-01
-1.154338332945530204e-01
-4.697668822887471896e-01
-6.666185761744105598e-01
-8.240999312829413448e-01
-1.020951625168604604e+00
-8.240999312829413448e-01
1.601585381453757562e-01
4.357509095853045467e-01
1.207881993682430738e-01
1.601585381453757562e-01
-3.122855271802164601e-01
-5.878778986201452783e-01
-6.666185761744105598e-01
-6.666185761744105598e-01
-5.091372210658798858e-01
-1.941745108488183713e-01
-3.669315574028765570e-02
-1.548041720716857028e-01
1.207881993682430738e-01
1.207881993682430738e-01
-2.729151884030837083e-01
-4.303965435116144933e-01
-5.485075598430124710e-01
-6.666185761744105598e-01
-9.422109476143393225e-01
-4.303965435116144933e-01
-7.606349451742032419e-02
-3.669315574028765570e-02
-7.606349451742032419e-02
-3.669315574028765570e-02
-3.122855271802164601e-01
-6.666185761744105598e-01
-8.240999312829413448e-01
-5.485075598430124710e-01
-6.272482373972779746e-01
-3.910262047344817415e-01
2.677183036845029278e-03
2.388992156996411209e-01
-3.122855271802164601e-01
-1.941745108488183713e-01
-3.516558659573491563e-01
-8.634702700600740410e-01
-1.020951625168604604e+00
-7.847295925058086485e-01
-6.666185761744105598e-01
-2.335448496259510953e-01
2.677183036845029278e-03
-3.669315574028765570e-02
-2.729151884030837083e-01
-1.941745108488183713e-01
-5.091372210658798858e-01
-1.060321963945737300e+00
-1.060321963945737300e+00
-7.453592537286759523e-01
-7.847295925058086485e-01
-3.516558659573491563e-01
-3.122855271802164601e-01
1.207881993682430738e-01
4.204752181397770905e-02
-1.548041720716857028e-01
-5.878778986201452783e-01
-7.453592537286759523e-01
-7.847295925058086485e-01
-9.422109476143393225e-01
-8.240999312829413448e-01
-3.516558659573491563e-01
-1.548041720716857028e-01
1.207881993682430738e-01
2.782695544767737617e-01
8.141786059111040530e-02
-4.697668822887471896e-01
-5.485075598430124710e-01
-7.453592537286759523e-01
-9.028406088372066263e-01
-7.059889149515432560e-01
-1.154338332945530204e-01
1.207881993682430738e-01
1.995288769225084524e-01
6.719729422481005576e-01
-1.941745108488183713e-01
-3.910262047344817415e-01
-6.272482373972779746e-01
-6.666185761744105598e-01
-8.634702700600740410e-01
-6.666185761744105598e-01
2.677183036845029278e-03
5.144915871395698836e-01
6.326026034709678614e-01
3.963805708081717949e-01
4.357509095853045467e-01
-1.154338332945530204e-01
-4.303965435116144933e-01
-5.878778986201452783e-01
-1.548041720716857028e-01
-1.548041720716857028e-01
3.570102320310392097e-01
3.963805708081717949e-01
5.144915871395698836e-01
3.570102320310392097e-01
8.141786059111040530e-02
-3.516558659573491563e-01
-5.878778986201452783e-01
-7.847295925058086485e-01
-7.847295925058086485e-01
-5.485075598430124710e-01
1.601585381453757562e-01
8.141786059111040530e-02
-1.548041720716857028e-01
-3.516558659573491563e-01
-1.941745108488183713e-01
-7.453592537286759523e-01
-1.099692302722869997e+00
-9.028406088372066263e-01
-8.240999312829413448e-01
-7.847295925058086485e-01
-2.729151884030837083e-01
-1.941745108488183713e-01
2.677183036845029278e-03
-1.154338332945530204e-01
-3.122855271802164601e-01
-8.240999312829413448e-01
-1.060321963945737300e+00
-1.060321963945737300e+00
-8.240999312829413448e-01
-9.028406088372066263e-01
-3.910262047344817415e-01
-1.941745108488183713e-01
-2.729151884030837083e-01
-3.516558659573491563e-01
-3.122855271802164601e-01
-8.634702700600740410e-01
-9.422109476143393225e-01
-7.453592537286759523e-01
-1.060321963945737300e+00
-6.666185761744105598e-01
-1.548041720716857028e-01
1.207881993682430738e-01
4.204752181397770905e-02
-5.878778986201452783e-01
-8.240999312829413448e-01
-1.375284674162798648e+00
-1.454025351717064041e+00
-1.454025351717064041e+00
-9.815812863914720188e-01
-6.666185761744105598e-01
-7.606349451742032419e-02
4.204752181397770905e-02
-3.669315574028765570e-02
-3.122855271802164601e-01
-7.453592537286759523e-01
-1.060321963945737300e+00
-1.099692302722869997e+00
-1.257173657831400782e+00
-1.217803319054268085e+00
-7.847295925058086485e-01
-6.666185761744105598e-01
-5.091372210658798858e-01
-3.516558659573491563e-01
-7.606349451742032419e-02
2.388992156996411209e-01
3.963805708081717949e-01
3.963805708081717949e-01
1.183787346350825498e+00
1.695601750453550327e+00
2.443638187219071334e+00
3.900340721972980429e+00
5.081450885286961316e+00
5.475154273058287835e+00
5.160191562841226265e+00
4.609006819961368961e+00
3.624748350533051777e+00
3.152304285207459866e+00
2.601119542327602119e+00
2.404267848441938416e+00
2.246786493333408075e+00
1.459379717790754372e+00
3.570102320310392097e-01
-6.272482373972779746e-01
-1.178432980277135389e+00
-1.690247384379860218e+00
-1.808358400711258085e+00
-1.926469417042656174e+00
-1.690247384379860218e+00
-1.335914335385665952e+00
-6.272482373972779746e-01
-2.729151884030837083e-01
1.207881993682430738e-01
-1.548041720716857028e-01
-4.303965435116144933e-01
-7.059889149515432560e-01
-7.059889149515432560e-01
-1.020951625168604604e+00
-8.240999312829413448e-01
-6.272482373972779746e-01
-3.516558659573491563e-01
8.141786059111040530e-02
-1.154338332945530204e-01
-3.669315574028765570e-02
-3.669315574028765570e-02
-5.091372210658798858e-01
-7.453592537286759523e-01
-5.878778986201452783e-01
-6.666185761744105598e-01
-1.296543996608533478e+00
-4.697668822887471896e-01
1.601585381453757562e-01
-3.669315574028765570e-02
2.388992156996411209e-01
3.570102320310392097e-01
-3.669315574028765570e-02
-8.634702700600740410e-01
-6.666185761744105598e-01
-3.516558659573491563e-01
-2.729151884030837083e-01
-7.606349451742032419e-02
8.141786059111040530e-02
1.601585381453757562e-01
1.207881993682430738e-01
2.782695544767737617e-01
-2.335448496259510953e-01
-3.910262047344817415e-01
-7.059889149515432560e-01
-6.666185761744105598e-01
-4.697668822887471896e-01
1.995288769225084524e-01
3.176398932539064579e-01
8.141786059111040530e-02
1.995288769225084524e-01
5.144915871395698836e-01
-1.941745108488183713e-01
-1.941745108488183713e-01
-3.122855271802164601e-01
-1.941745108488183713e-01
-3.669315574028765570e-02
3.176398932539064579e-01
-3.910262047344817415e-01
8.141786059111040530e-02
4.751212483624372429e-01
1.995288769225084524e-01
2.677183036845029278e-03
-3.122855271802164601e-01
-3.122855271802164601e-01
8.141786059111040530e-02
-1.154338332945530204e-01
5.144915871395698836e-01
6.719729422481005576e-01
9.475653136880294314e-01
8.688246361337639279e-01
7.900839585794986464e-01
3.570102320310392097e-01
1.601585381453757562e-01
4.204752181397770905e-02
8.141786059111040530e-02
2.677183036845029278e-03
6.326026034709678614e-01
7.507136198023659501e-01
8.688246361337639279e-01
1.026305991242294935e+00
1.026305991242294935e+00
6.719729422481005576e-01
4.751212483624372429e-01
2.677183036845029278e-03
6.719729422481005576e-01
1.026305991242294935e+00
1.183787346350825498e+00
1.380639040236488979e+00
1.380639040236488979e+00
1.380639040236488979e+00
1.538120395345019764e+00
1.459379717790754372e+00
1.459379717790754372e+00
3.176398932539064579e-01
7.113432810252333649e-01
1.459379717790754372e+00
1.892453444339213808e+00
2.010564460670611897e+00
2.089305138224877290e+00
1.695601750453550327e+00
1.813712766784948416e+00
1.656231411676417631e+00
1.341268701459356283e+00
1.420009379013621453e+00
1.301898362682223587e+00
1.380639040236488979e+00
1.853083105562081112e+00
1.853083105562081112e+00
2.049934799447744371e+00
1.971194121893479201e+00
1.301898362682223587e+00
1.301898362682223587e+00
9.869356524651621276e-01
1.144417007573693024e+00
1.183787346350825498e+00
9.869356524651621276e-01
1.538120395345019764e+00
8.294542973566313426e-01
1.065676330019427631e+00
9.869356524651621276e-01
7.507136198023659501e-01
1.601585381453757562e-01
1.601585381453757562e-01
2.388992156996411209e-01
3.176398932539064579e-01
2.782695544767737617e-01
3.176398932539064579e-01
8.688246361337639279e-01
7.113432810252333649e-01
6.719729422481005576e-01
1.207881993682430738e-01
-3.122855271802164601e-01
-3.516558659573491563e-01
-4.697668822887471896e-01
-4.697668822887471896e-01
-7.606349451742032419e-02
3.570102320310392097e-01
4.751212483624372429e-01
4.204752181397770905e-02
-3.669315574028765570e-02
-6.272482373972779746e-01
-5.091372210658798858e-01
-9.422109476143393225e-01
-6.666185761744105598e-01
-8.240999312829413448e-01
-3.516558659573491563e-01
-1.941745108488183713e-01
-7.606349451742032419e-02
-3.669315574028765570e-02
1.207881993682430738e-01
-5.485075598430124710e-01
-1.139062641500002693e+00
-7.847295925058086485e-01
-9.028406088372066263e-01
-1.020951625168604604e+00
-6.666185761744105598e-01
-3.669315574028765570e-02
1.207881993682430738e-01
1.207881993682430738e-01
4.204752181397770905e-02
-3.122855271802164601e-01
-6.666185761744105598e-01
-8.240999312829413448e-01
-7.453592537286759523e-01
-7.847295925058086485e-01
-1.941745108488183713e-01
1.601585381453757562e-01
2.782695544767737617e-01
2.677183036845029278e-03
-1.941745108488183713e-01
-7.453592537286759523e-01
-7.847295925058086485e-01
-6.666185761744105598e-01
-1.375284674162798648e+00
-9.422109476143393225e-01
-3.669315574028765570e-02
1.601585381453757562e-01
1.601585381453757562e-01
1.207881993682430738e-01
-1.154338332945530204e-01
-5.091372210658798858e-01
-6.666185761744105598e-01
-4.697668822887471896e-01
-1.099692302722869997e+00
-8.634702700600740410e-01
-7.606349451742032419e-02
-3.516558659573491563e-01
8.141786059111040530e-02
1.601585381453757562e-01
-3.669315574028765570e-02
-4.697668822887471896e-01
-6.666185761744105598e-01
-8.240999312829413448e-01
-4.697668822887471896e-01
-5.485075598430124710e-01
-1.941745108488183713e-01
-3.669315574028765570e-02
1.207881993682430738e-01
2.677183036845029278e-03
1.207881993682430738e-01
-2.335448496259510953e-01
-6.272482373972779746e-01
-8.634702700600740410e-01
-7.059889149515432560e-01
-1.020951625168604604e+00
-5.485075598430124710e-01
4.204752181397770905e-02
1.601585381453757562e-01
1.207881993682430738e-01
2.677183036845029278e-03
-5.091372210658798858e-01
-5.485075598430124710e-01
-6.666185761744105598e-01
-7.059889149515432560e-01
-5.485075598430124710e-01
-7.606349451742032419e-02
3.963805708081717949e-01
1.995288769225084524e-01
-4.697668822887471896e-01
-3.516558659573491563e-01
-7.847295925058086485e-01
-8.240999312829413448e-01
-9.422109476143393225e-01
-8.634702700600740410e-01
-7.453592537286759523e-01
1.207881993682430738e-01
1.207881993682430738e-01
1.207881993682430738e-01
-2.335448496259510953e-01
-7.606349451742032419e-02
-7.453592537286759523e-01
-1.099692302722869997e+00
-1.060321963945737300e+00
-1.139062641500002693e+00
-1.060321963945737300e+00
-3.669315574028765570e-02
2.677183036845029278e-03
2.388992156996411209e-01
1.601585381453757562e-01
-1.548041720716857028e-01
-1.060321963945737300e+00
-9.028406088372066263e-01
-6.666185761744105598e-01
-8.240999312829413448e-01
-6.272482373972779746e-01
-3.516558659573491563e-01
-3.669315574028765570e-02
2.782695544767737617e-01
1.601585381453757562e-01
8.141786059111040530e-02
-6.666185761744105598e-01
-1.060321963945737300e+00
-1.020951625168604604e+00
-7.059889149515432560e-01
-8.240999312829413448e-01
-2.335448496259510953e-01
1.995288769225084524e-01
2.388992156996411209e-01
-1.154338332945530204e-01
-3.669315574028765570e-02
-5.485075598430124710e-01
-5.878778986201452783e-01
-6.272482373972779746e-01
-5.485075598430124710e-01
-4.697668822887471896e-01
1.995288769225084524e-01
-1.154338332945530204e-01
-7.606349451742032419e-02
1.995288769225084524e-01
2.782695544767737617e-01
-7.606349451742032419e-02
-2.335448496259510953e-01
-2.729151884030837083e-01
-3.122855271802164601e-01
2.677183036845029278e-03
3.570102320310392097e-01
6.326026034709678614e-01
3.176398932539064579e-01
3.176398932539064579e-01
8.141786059111040530e-02
-4.303965435116144933e-01
-5.485075598430124710e-01
-6.666185761744105598e-01
-6.666185761744105598e-01
-2.335448496259510953e-01
2.677183036845029278e-03
1.601585381453757562e-01
1.207881993682430738e-01
-7.453592537286759523e-01
-1.099692302722869997e+00
-6.666185761744105598e-01
-8.634702700600740410e-01
-1.178432980277135389e+00
-1.099692302722869997e+00
-7.453592537286759523e-01
8.141786059111040530e-02
-1.154338332945530204e-01
-1.941745108488183713e-01
-1.941745108488183713e-01
-8.240999312829413448e-01
-1.139062641500002693e+00
-1.139062641500002693e+00
-1.375284674162798648e+00
-9.422109476143393225e-01
-5.485075598430124710e-01
-1.154338332945530204e-01
-7.606349451742032419e-02
-7.606349451742032419e-02
-1.154338332945530204e-01
-3.910262047344817415e-01
-1.060321963945737300e+00
-1.729617723156992914e+00
-1.139062641500002693e+00
-8.240999312829413448e-01
-5.878778986201452783e-01
-4.697668822887471896e-01
-3.910262047344817415e-01
-3.516558659573491563e-01
-1.941745108488183713e-01
-8.634702700600740410e-01
-1.099692302722869997e+00
-1.060321963945737300e+00
-9.815812863914720188e-01
-1.060321963945737300e+00
-3.910262047344817415e-01
-5.878778986201452783e-01
-1.548041720716857028e-01
-2.335448496259510953e-01
-9.422109476143393225e-01
-9.028406088372066263e-01
-1.099692302722869997e+00
-1.139062641500002693e+00
-1.139062641500002693e+00
-1.139062641500002693e+00
-7.847295925058086485e-01
-3.910262047344817415e-01
-5.091372210658798858e-01
-8.634702700600740410e-01
-6.666185761744105598e-01
-9.815812863914720188e-01
-5.485075598430124710e-01
-1.941745108488183713e-01
2.782695544767737617e-01
6.326026034709678614e-01
1.656231411676417631e+00
2.364897509664805941e+00
3.073563607653194474e+00
3.546007672978786385e+00
4.175933093412909969e+00
3.664118689310184696e+00
3.585378011755919303e+00
3.270415301538857289e+00
2.955452591321796163e+00
2.797971236213265378e+00
2.719230558659000430e+00
1.931823783116346505e+00
1.695601750453550327e+00
7.113432810252333649e-01
-1.548041720716857028e-01
-1.335914335385665952e+00
-1.729617723156992914e+00
-2.083950772151187181e+00
-2.083950772151187181e+00
-1.808358400711258085e+00
-1.060321963945737300e+00
-5.091372210658798858e-01
-2.335448496259510953e-01
-4.303965435116144933e-01
-1.941745108488183713e-01
-8.240999312829413448e-01
-7.847295925058086485e-01
-7.453592537286759523e-01
-6.272482373972779746e-01
-7.059889149515432560e-01
-4.303965435116144933e-01
-1.941745108488183713e-01
-1.548041720716857028e-01
-2.335448496259510953e-01
2.677183036845029278e-03
-2.335448496259510953e-01
-1.099692302722869997e+00
-1.178432980277135389e+00
-1.020951625168604604e+00
-5.485075598430124710e-01
-1.154338332945530204e-01
1.601585381453757562e-01
-7.606349451742032419e-02
-2.335448496259510953e-01
-7.606349451742032419e-02
-5.878778986201452783e-01
-7.847295925058086485e-01
-8.240999312829413448e-01
-8.240999312829413448e-01
-7.059889149515432560e-01
2.388992156996411209e-01
3.570102320310392097e-01
3.963805708081717949e-01
-3.669315574028765570e-02
2.677183036845029278e-03
-7.453592537286759523e-01
-5.091372210658798858e-01
-6.272482373972779746e-01
-4.303965435116144933e-01
-5.878778986201452783e-01
2.677183036845029278e-03
3.176398932539064579e-01
4.357509095853045467e-01
1.207881993682430738e-01
-2.335448496259510953e-01
-7.059889149515432560e-01
-5.878778986201452783e-01
-7.059889149515432560e-01
-3.122855271802164601e-01
-2.335448496259510953e-01
2.782695544767737617e-01
5.144915871395698836e-01
2.388992156996411209e-01
2.782695544767737617e-01
1.601585381453757562e-01
-5.091372210658798858e-01
-6.272482373972779746e-01
-2.335448496259510953e-01
-1.154338332945530204e-01
-1.154338332945530204e-01
1.995288769225084524e-01
7.900839585794986464e-01
9.081949749108967351e-01
5.932322646938352761e-01
1.995288769225084524e-01
2.677183036845029278e-03
-7.606349451742032419e-02
2.677183036845029278e-03
8.141786059111040530e-02
3.963805708081717949e-01
8.294542973566313426e-01
7.113432810252333649e-01
8.294542973566313426e-01
1.105046668796560327e+00
6.326026034709678614e-01
4.204752181397770905e-02
2.388992156996411209e-01
2.677183036845029278e-03
4.357509095853045467e-01
8.688246361337639279e-01
1.301898362682223587e+00
1.420009379013621453e+00
1.538120395345019764e+00
1.380639040236488979e+00
1.223157685127958194e+00
9.475653136880294314e-01
8.688246361337639279e-01
6.719729422481005576e-01
1.105046668796560327e+00
1.695601750453550327e+00
1.971194121893479201e+00
1.853083105562081112e+00
1.813712766784948416e+00
1.774342428007815720e+00
1.183787346350825498e+00
1.223157685127958194e+00
1.380639040236488979e+00
1.341268701459356283e+00
1.144417007573693024e+00
1.695601750453550327e+00
1.813712766784948416e+00
1.695601750453550327e+00
1.498750056567887068e+00
1.734972089230683023e+00
1.498750056567887068e+00
1.223157685127958194e+00
9.869356524651621276e-01
9.475653136880294314e-01
1.026305991242294935e+00
1.262528023905090890e+00
1.262528023905090890e+00
1.183787346350825498e+00
1.144417007573693024e+00
1.144417007573693024e+00
8.294542973566313426e-01
3.176398932539064579e-01
8.141786059111040530e-02
-1.154338332945530204e-01
8.141786059111040530e-02
6.719729422481005576e-01
7.900839585794986464e-01
8.294542973566313426e-01
6.326026034709678614e-01
5.144915871395698836e-01
-1.154338332945530204e-01
-4.303965435116144933e-01
-3.910262047344817415e-01
-5.485075598430124710e-01
-4.303965435116144933e-01
-4.303965435116144933e-01
-3.669315574028765570e-02
-2.335448496259510953e-01
-3.669315574028765570e-02
1.601585381453757562e-01
-5.878778986201452783e-01
-8.240999312829413448e-01
-1.217803319054268085e+00
-8.634702700600740410e-01
-8.240999312829413448e-01
-2.729151884030837083e-01
2.677183036845029278e-03
-7.606349451742032419e-02
-1.154338332945530204e-01
-7.606349451742032419e-02
-5.485075598430124710e-01
-9.422109476143393225e-01
-1.178432980277135389e+00
-1.178432980277135389e+00
-9.422109476143393225e-01
-1.941745108488183713e-01
-1.941745108488183713e-01
-4.697668822887471896e-01
-1.154338332945530204e-01
8.141786059111040530e-02
-7.847295925058086485e-01
-8.634702700600740410e-01
-7.453592537286759523e-01
-6.666185761744105598e-01
-7.453592537286759523e-01
-6.666185761744105598e-01
-7.606349451742032419e-02
-2.729151884030837083e-01
-1.548041720716857028e-01
-4.697668822887471896e-01
-8.240999312829413448e-01
-7.847295925058086485e-01
-9.422109476143393225e-01
-9.028406088372066263e-01
-5.878778986201452783e-01
-5.878778986201452783e-01
-3.516558659573491563e-01
1.601585381453757562e-01
4.204752181397770905e-02
4.204752181397770905e-02
-9.028406088372066263e-01
-9.815812863914720188e-01
-8.240999312829413448e-01
-9.815812863914720188e-01
-8.634702700600740410e-01
8.141786059111040530e-02
2.677183036845029278e-03
-3.516558659573491563e-01
2.677183036845029278e-03
2.677183036845029278e-03
-7.453592537286759523e-01
-8.240999312829413448e-01
-7.453592537286759523e-01
-8.634702700600740410e-01
-5.878778986201452783e-01
1.207881993682430738e-01
-2.729151884030837083e-01
1.207881993682430738e-01
2.388992156996411209e-01
-3.669315574028765570e-02
-1.060321963945737300e+00
-1.099692302722869997e+00
-7.453592537286759523e-01
-7.847295925058086485e-01
-7.847295925058086485e-01
2.677183036845029278e-03
1.601585381453757562e-01
1.207881993682430738e-01
-2.729151884030837083e-01
-6.272482373972779746e-01
-6.666185761744105598e-01
-8.240999312829413448e-01
-8.634702700600740410e-01
-1.020951625168604604e+00
-7.059889149515432560e-01
-2.729151884030837083e-01
-3.669315574028765570e-02
-2.729151884030837083e-01
-4.697668822887471896e-01
-6.272482373972779746e-01
-9.028406088372066263e-01
-9.028406088372066263e-01
-8.634702700600740410e-01
-6.272482373972779746e-01
-4.303965435116144933e-01
-1.154338332945530204e-01
2.677183036845029278e-03
-1.154338332945530204e-01
-3.669315574028765570e-02
-3.910262047344817415e-01
-8.240999312829413448e-01
-9.028406088372066263e-01
-9.028406088372066263e-01
-9.422109476143393225e-01
-9.815812863914720188e-01
-3.516558659573491563e-01
-7.606349451742032419e-02
8.141786059111040530e-02
-1.548041720716857028e-01
-7.059889149515432560e-01
-1.020951625168604604e+00
-1.060321963945737300e+00
-1.099692302722869997e+00
-9.028406088372066263e-01
-5.091372210658798858e-01
-2.729151884030837083e-01
8.141786059111040530e-02
-1.154338332945530204e-01
8.141786059111040530e-02
-5.485075598430124710e-01
-1.296543996608533478e+00
-1.020951625168604604e+00
-9.422109476143393225e-01
-5.485075598430124710e-01
-1.154338332945530204e-01
1.601585381453757562e-01
