-5.960176495551986475e-01
-5.960176495551986475e-01
-5.960176495551986475e-01
-5.200628069968709077e-01
-5.580402282760348331e-01
-4.441079644385430014e-01
-3.301757006010512252e-01
-4.441079644385430014e-01
-5.580402282760348331e-01
-5.580402282760348331e-01
-4.820853857177069268e-01
-5.200628069968709077e-01
-5.580402282760348331e-01
-4.441079644385430014e-01
-4.061305431593790760e-01
-3.681531218802151506e-01
-2.921982793218872443e-01
-3.301757006010512252e-01
-4.441079644385430014e-01
-5.580402282760348331e-01
-5.960176495551986475e-01
-5.580402282760348331e-01
-4.061305431593790760e-01
-3.681531218802151506e-01
-3.301757006010512252e-01
-2.542208580427233189e-01
-2.921982793218872443e-01
-3.301757006010512252e-01
-3.301757006010512252e-01
-3.681531218802151506e-01
-2.542208580427233189e-01
-1.782660154843954681e-01
-6.433375164690367798e-02
2.394856185864077669e-01
2.774630398655717478e-01
3.913953037030635240e-01
5.053275675405553002e-01
5.053275675405553002e-01
4.293727249822273939e-01
4.293727249822273939e-01
4.673501462613913193e-01
3.913953037030635240e-01
5.053275675405553002e-01
5.433049888197191146e-01
5.812824100988831511e-01
6.572372526572108908e-01
6.952146739363749273e-01
7.331920952155388527e-01
8.471243590530305179e-01
9.230792016113584797e-01
8.471243590530305179e-01
7.711695164947027781e-01
8.851017803321945543e-01
9.990340441696864415e-01
1.112966308007178107e+00
1.150943729286342032e+00
1.074988886728014181e+00
1.037011465448850256e+00
9.990340441696864415e-01
1.074988886728014181e+00
1.037011465448850256e+00
9.610566228905224051e-01
1.037011465448850256e+00
1.037011465448850256e+00
1.037011465448850256e+00
9.990340441696864415e-01
9.610566228905224051e-01
8.851017803321945543e-01
7.711695164947027781e-01
6.192598313780470765e-01
6.192598313780470765e-01
5.433049888197191146e-01
5.812824100988831511e-01
6.572372526572108908e-01
6.952146739363749273e-01
7.331920952155388527e-01
8.091469377738668145e-01
6.952146739363749273e-01
6.952146739363749273e-01
6.572372526572108908e-01
5.812824100988831511e-01
4.673501462613913193e-01
4.673501462613913193e-01
4.673501462613913193e-01
5.433049888197191146e-01
6.192598313780470765e-01
6.572372526572108908e-01
5.433049888197191146e-01
4.673501462613913193e-01
3.534178824238995431e-01
3.154404611447355622e-01
3.154404611447355622e-01
4.293727249822273939e-01
5.812824100988831511e-01
6.192598313780470765e-01
6.572372526572108908e-01
6.952146739363749273e-01
4.673501462613913193e-01
3.534178824238995431e-01
2.774630398655717478e-01
2.015081973072437860e-01
3.913953037030635240e-01
5.053275675405553002e-01
5.053275675405553002e-01
5.433049888197191146e-01
6.192598313780470765e-01
5.433049888197191146e-01
4.673501462613913193e-01
3.913953037030635240e-01
3.154404611447355622e-01
2.774630398655717478e-01
3.534178824238995431e-01
3.154404611447355622e-01
3.534178824238995431e-01
4.293727249822273939e-01
3.534178824238995431e-01
4.293727249822273939e-01
1.635307760280798883e-01
8.757593346975200976e-02
-1.023111729260676173e-01
-1.023111729260676173e-01
4.959851219058809824e-02
2.774630398655717478e-01
6.192598313780470765e-01
1.074988886728014181e+00
1.530717942077981286e+00
1.872514733590456837e+00
2.214311525102932166e+00
2.670040580452899270e+00
3.125769635802866375e+00
3.961272903944473178e+00
4.910708435923571535e+00
5.974076231740160559e+00
6.505760129648455958e+00
6.277895601973472850e+00
6.125985916856816260e+00
5.632279440227685896e+00
5.024640699761062201e+00
4.265092274177783693e+00
3.581498691152833480e+00
2.745995423011227121e+00
1.758582469752965061e+00
9.230792016113584797e-01
1.255533547489159629e-01
-1.782660154843954681e-01
1.162109091142419018e-02
4.959851219058809824e-02
4.959851219058809824e-02
1.635307760280798883e-01
2.015081973072437860e-01
3.154404611447355622e-01
4.673501462613913193e-01
6.572372526572108908e-01
7.331920952155388527e-01
6.952146739363749273e-01
7.331920952155388527e-01
6.572372526572108908e-01
5.433049888197191146e-01
4.293727249822273939e-01
3.913953037030635240e-01
4.293727249822273939e-01
5.433049888197191146e-01
5.812824100988831511e-01
5.812824100988831511e-01
6.572372526572108908e-01
7.331920952155388527e-01
6.952146739363749273e-01
5.812824100988831511e-01
4.293727249822273939e-01
3.154404611447355622e-01
3.534178824238995431e-01
4.673501462613913193e-01
6.192598313780470765e-01
6.192598313780470765e-01
6.192598313780470765e-01
8.091469377738668145e-01
5.812824100988831511e-01
5.053275675405553002e-01
4.673501462613913193e-01
3.913953037030635240e-01
5.053275675405553002e-01
6.572372526572108908e-01
7.331920952155388527e-01
7.711695164947027781e-01
8.091469377738668145e-01
8.471243590530305179e-01
7.331920952155388527e-01
6.192598313780470765e-01
5.812824100988831511e-01
5.433049888197191146e-01
5.812824100988831511e-01
7.331920952155388527e-01
8.091469377738668145e-01
8.851017803321945543e-01
9.230792016113584797e-01
9.990340441696864415e-01
7.711695164947027781e-01
6.192598313780470765e-01
5.812824100988831511e-01
6.192598313780470765e-01
5.812824100988831511e-01
7.331920952155388527e-01
7.711695164947027781e-01
8.091469377738668145e-01
9.230792016113584797e-01
9.990340441696864415e-01
9.610566228905224051e-01
8.851017803321945543e-01
8.471243590530305179e-01
8.471243590530305179e-01
7.711695164947027781e-01
8.091469377738668145e-01
9.990340441696864415e-01
1.037011465448850256e+00
1.074988886728014181e+00
1.037011465448850256e+00
1.037011465448850256e+00
9.990340441696864415e-01
1.074988886728014181e+00
9.610566228905224051e-01
9.990340441696864415e-01
1.112966308007178107e+00
1.340830835682161659e+00
1.378808256961325585e+00
1.454763099519653435e+00
1.454763099519653435e+00
1.378808256961325585e+00
1.340830835682161659e+00
1.416785678240489510e+00
1.264875993123834030e+00
1.454763099519653435e+00
1.644650205915473062e+00
1.682627627194637210e+00
1.720605048473801135e+00
1.796559891032128986e+00
1.796559891032128986e+00
1.796559891032128986e+00
1.758582469752965061e+00
1.758582469752965061e+00
1.644650205915473062e+00
1.758582469752965061e+00
1.758582469752965061e+00
1.872514733590456837e+00
1.986446997427948391e+00
1.986446997427948391e+00
1.948469576148784466e+00
1.948469576148784466e+00
1.910492154869620540e+00
1.872514733590456837e+00
1.720605048473801135e+00
1.720605048473801135e+00
1.682627627194637210e+00
1.720605048473801135e+00
1.720605048473801135e+00
1.796559891032128986e+00
1.720605048473801135e+00
1.530717942077981286e+00
1.416785678240489510e+00
1.188921150565505958e+00
1.037011465448850256e+00
1.037011465448850256e+00
8.851017803321945543e-01
9.230792016113584797e-01
9.610566228905224051e-01
8.851017803321945543e-01
7.331920952155388527e-01
6.572372526572108908e-01
4.673501462613913193e-01
4.673501462613913193e-01
3.154404611447355622e-01
3.534178824238995431e-01
3.154404611447355622e-01
3.154404611447355622e-01
2.394856185864077669e-01
2.394856185864077669e-01
1.162109091142419018e-02
-2.635633036773977339e-02
-1.023111729260676173e-01
-1.402885942052315704e-01
-2.921982793218872443e-01
-2.542208580427233189e-01
-1.782660154843954681e-01
-1.782660154843954681e-01
-1.782660154843954681e-01
-2.635633036773977339e-02
-1.402885942052315704e-01
-2.162434367635593935e-01
-3.301757006010512252e-01
-4.061305431593790760e-01
-4.820853857177069268e-01
-4.061305431593790760e-01
-3.681531218802151506e-01
-3.301757006010512252e-01
-2.921982793218872443e-01
-1.782660154843954681e-01
-3.301757006010512252e-01
-2.921982793218872443e-01
-4.441079644385430014e-01
-6.719724921135264983e-01
-5.580402282760348331e-01
-5.200628069968709077e-01
-3.301757006010512252e-01
-2.542208580427233189e-01
-2.162434367635593935e-01
-2.162434367635593935e-01
-2.921982793218872443e-01
-4.820853857177069268e-01
-5.200628069968709077e-01
-5.580402282760348331e-01
-4.820853857177069268e-01
-5.200628069968709077e-01
-4.820853857177069268e-01
-4.061305431593790760e-01
-3.681531218802151506e-01
-3.301757006010512252e-01
-4.441079644385430014e-01
-5.200628069968709077e-01
-6.719724921135264983e-01
-6.719724921135264983e-01
-6.339950708343626840e-01
-5.580402282760348331e-01
-4.441079644385430014e-01
-3.681531218802151506e-01
-4.061305431593790760e-01
-3.301757006010512252e-01
-4.441079644385430014e-01
-4.820853857177069268e-01
-5.200628069968709077e-01
-6.339950708343626840e-01
-6.719724921135264983e-01
-5.580402282760348331e-01
-5.580402282760348331e-01
-4.061305431593790760e-01
-3.681531218802151506e-01
-4.061305431593790760e-01
-4.820853857177069268e-01
-5.960176495551986475e-01
-6.339950708343626840e-01
-6.719724921135264983e-01
-6.719724921135264983e-01
-6.339950708343626840e-01
-4.061305431593790760e-01
-4.441079644385430014e-01
-4.441079644385430014e-01
-3.681531218802151506e-01
-5.200628069968709077e-01
-5.580402282760348331e-01
-5.580402282760348331e-01
-5.580402282760348331e-01
-5.580402282760348331e-01
-4.441079644385430014e-01
-5.200628069968709077e-01
-4.820853857177069268e-01
-4.441079644385430014e-01
-4.820853857177069268e-01
-5.960176495551986475e-01
-7.099499133926905348e-01
-7.099499133926905348e-01
-7.479273346718544602e-01
-7.099499133926905348e-01
-5.580402282760348331e-01
-4.820853857177069268e-01
-5.200628069968709077e-01
-4.820853857177069268e-01
-4.441079644385430014e-01
-5.960176495551986475e-01
-5.960176495551986475e-01
-7.479273346718544602e-01
-7.859047559510183856e-01
-7.479273346718544602e-01
-6.719724921135264983e-01
-6.339950708343626840e-01
-5.200628069968709077e-01
-4.820853857177069268e-01
-4.820853857177069268e-01
-5.960176495551986475e-01
-7.099499133926905348e-01
-7.479273346718544602e-01
-8.238821772301823110e-01
-7.859047559510183856e-01
-6.339950708343626840e-01
-6.339950708343626840e-01
-5.580402282760348331e-01
-4.820853857177069268e-01
-5.580402282760348331e-01
-5.960176495551986475e-01
-7.099499133926905348e-01
-7.099499133926905348e-01
-7.479273346718544602e-01
-8.238821772301823110e-01
-7.859047559510183856e-01
-7.099499133926905348e-01
-6.719724921135264983e-01
-5.960176495551986475e-01
-6.339950708343626840e-01
-6.719724921135264983e-01
-7.479273346718544602e-01
-7.479273346718544602e-01
-8.618595985093462364e-01
-7.479273346718544602e-01
-6.719724921135264983e-01
-5.580402282760348331e-01
-5.580402282760348331e-01
-4.820853857177069268e-01
-5.200628069968709077e-01
-6.339950708343626840e-01
-8.238821772301823110e-01
-8.238821772301823110e-01
-9.757918623468380126e-01
-9.378144410676740872e-01
-7.479273346718544602e-01
-6.719724921135264983e-01
-5.960176495551986475e-01
-5.960176495551986475e-01
-6.719724921135264983e-01
-7.859047559510183856e-01
-8.618595985093462364e-01
-8.238821772301823110e-01
-8.238821772301823110e-01
-7.479273346718544602e-01
-7.099499133926905348e-01
-6.719724921135264983e-01
-5.960176495551986475e-01
-5.580402282760348331e-01
-5.580402282760348331e-01
-6.719724921135264983e-01
-8.238821772301823110e-01
-8.238821772301823110e-01
-8.618595985093462364e-01
-7.479273346718544602e-01
-7.099499133926905348e-01
-6.719724921135264983e-01
-7.099499133926905348e-01
-5.960176495551986475e-01
-7.479273346718544602e-01
-8.238821772301823110e-01
-8.998370197885101618e-01
-9.378144410676740872e-01
-9.378144410676740872e-01
-8.238821772301823110e-01
-6.719724921135264983e-01
-4.820853857177069268e-01
-4.441079644385430014e-01
-5.960176495551986475e-01
-7.479273346718544602e-01
-8.238821772301823110e-01
-8.998370197885101618e-01
-9.378144410676740872e-01
-1.013769283626001938e+00
-8.998370197885101618e-01
-7.859047559510183856e-01
-7.099499133926905348e-01
-5.960176495551986475e-01
-5.580402282760348331e-01
-7.099499133926905348e-01
-7.859047559510183856e-01
-8.238821772301823110e-01
-8.998370197885101618e-01
-8.998370197885101618e-01
-7.859047559510183856e-01
-7.099499133926905348e-01
-7.099499133926905348e-01
-6.719724921135264983e-01
-6.339950708343626840e-01
-7.479273346718544602e-01
-8.238821772301823110e-01
-8.238821772301823110e-01
-8.618595985093462364e-01
-7.859047559510183856e-01
-7.099499133926905348e-01
-6.719724921135264983e-01
-6.719724921135264983e-01
-5.960176495551986475e-01
-5.580402282760348331e-01
-7.479273346718544602e-01
-8.618595985093462364e-01
-9.378144410676740872e-01
-7.859047559510183856e-01
-8.618595985093462364e-01
-7.859047559510183856e-01
-6.339950708343626840e-01
-5.960176495551986475e-01
-6.339950708343626840e-01
-5.960176495551986475e-01
-6.719724921135264983e-01
-7.859047559510183856e-01
-8.238821772301823110e-01
-7.859047559510183856e-01
-7.479273346718544602e-01
-7.099499133926905348e-01
-6.719724921135264983e-01
-6.719724921135264983e-01
-5.580402282760348331e-01
-5.960176495551986475e-01
-7.099499133926905348e-01
-6.719724921135264983e-01
-6.339950708343626840e-01
-7.479273346718544602e-01
-6.719724921135264983e-01
-5.580402282760348331e-01
-5.200628069968709077e-01
-3.681531218802151506e-01
-4.061305431593790760e-01
-4.820853857177069268e-01
-5.200628069968709077e-01
-6.339950708343626840e-01
-6.339950708343626840e-01
-6.339950708343626840e-01
-6.339950708343626840e-01
-5.580402282760348331e-01
-4.061305431593790760e-01
-2.162434367635593935e-01
-1.782660154843954681e-01
-1.402885942052315704e-01
-2.542208580427233189e-01
-2.542208580427233189e-01
-3.681531218802151506e-01
-4.061305431593790760e-01
-4.061305431593790760e-01
-4.061305431593790760e-01
-2.921982793218872443e-01
-1.782660154843954681e-01
8.757593346975200976e-02
-6.433375164690367798e-02
-2.162434367635593935e-01
-2.542208580427233189e-01
-4.441079644385430014e-01
-5.960176495551986475e-01
-5.580402282760348331e-01
-4.441079644385430014e-01
-4.441079644385430014e-01
-4.820853857177069268e-01
-4.820853857177069268e-01
-6.339950708343626840e-01
-7.099499133926905348e-01
-8.238821772301823110e-01
-8.998370197885101618e-01
-9.378144410676740872e-01
-9.378144410676740872e-01
-7.859047559510183856e-01
-7.859047559510183856e-01
-6.719724921135264983e-01
-5.960176495551986475e-01
-6.719724921135264983e-01
-7.859047559510183856e-01
-8.618595985093462364e-01
-8.618595985093462364e-01
-9.378144410676740872e-01
-9.378144410676740872e-01
-8.618595985093462364e-01
-7.099499133926905348e-01
-7.099499133926905348e-01
-7.099499133926905348e-01
-8.618595985093462364e-01
-8.618595985093462364e-01
-8.998370197885101618e-01
-1.051746704905165641e+00
-1.089724126184329789e+00
-1.013769283626001938e+00
-8.618595985093462364e-01
-8.238821772301823110e-01
-7.479273346718544602e-01
-6.719724921135264983e-01
-7.859047559510183856e-01
-8.998370197885101618e-01
-1.013769283626001938e+00
-1.089724126184329789e+00
-1.051746704905165641e+00
-9.378144410676740872e-01
-8.998370197885101618e-01
-8.618595985093462364e-01
-8.238821772301823110e-01
-6.339950708343626840e-01
-8.618595985093462364e-01
-8.998370197885101618e-01
-9.378144410676740872e-01
-1.089724126184329789e+00
-1.165678968742657640e+00
-1.051746704905165641e+00
-9.757918623468380126e-01
-1.013769283626001938e+00
-1.013769283626001938e+00
-1.051746704905165641e+00
-1.203656390021821565e+00
-1.241633811300985490e+00
-1.203656390021821565e+00
-1.203656390021821565e+00
-9.378144410676740872e-01
-4.061305431593790760e-01
8.757593346975200976e-02
4.673501462613913193e-01
9.230792016113584797e-01
1.530717942077981286e+00
1.834537312311292911e+00
2.480153474057079421e+00
3.239701899640358373e+00
4.227114852898620434e+00
4.834753593365243240e+00
4.872731014644407388e+00
4.872731014644407388e+00
4.454979380573603542e+00
4.113182589061127992e+00
3.277679320919522521e+00
2.632063159173735567e+00
1.796559891032128986e+00
7.711695164947027781e-01
-3.301757006010512252e-01
-1.241633811300985490e+00
-1.621408024092624744e+00
-1.659385445371788670e+00
-1.393543496417641192e+00
-1.279611232580149416e+00
-1.089724126184329789e+00
-8.998370197885101618e-01
-7.859047559510183856e-01
-7.859047559510183856e-01
-8.238821772301823110e-01
-7.099499133926905348e-01
-6.339950708343626840e-01
-6.339950708343626840e-01
-5.200628069968709077e-01
-4.820853857177069268e-01
-5.200628069968709077e-01
-6.339950708343626840e-01
-7.099499133926905348e-01
-7.099499133926905348e-01
-7.099499133926905348e-01
-7.479273346718544602e-01
-6.339950708343626840e-01
-5.580402282760348331e-01
-4.820853857177069268e-01
-5.580402282760348331e-01
-4.820853857177069268e-01
-5.960176495551986475e-01
-7.479273346718544602e-01
-7.099499133926905348e-01
-7.479273346718544602e-01
-5.580402282760348331e-01
-5.580402282760348331e-01
-4.061305431593790760e-01
-3.301757006010512252e-01
-3.681531218802151506e-01
-3.681531218802151506e-01
-4.820853857177069268e-01
-5.960176495551986475e-01
-5.580402282760348331e-01
-6.719724921135264983e-01
-5.960176495551986475e-01
-4.820853857177069268e-01
-3.301757006010512252e-01
-2.162434367635593935e-01
-1.782660154843954681e-01
-2.542208580427233189e-01
-4.441079644385430014e-01
-4.820853857177069268e-01
-5.200628069968709077e-01
-7.479273346718544602e-01
-5.580402282760348331e-01
-3.681531218802151506e-01
-3.681531218802151506e-01
-2.921982793218872443e-01
-1.402885942052315704e-01
-1.782660154843954681e-01
-2.162434367635593935e-01
-2.921982793218872443e-01
-3.301757006010512252e-01
-3.681531218802151506e-01
-2.542208580427233189e-01
-2.921982793218872443e-01
-2.542208580427233189e-01
-1.782660154843954681e-01
-6.433375164690367798e-02
-2.635633036773977339e-02
-1.402885942052315704e-01
-1.402885942052315704e-01
-2.542208580427233189e-01
-1.782660154843954681e-01
-1.782660154843954681e-01
-2.635633036773977339e-02
8.757593346975200976e-02
1.635307760280798883e-01
2.394856185864077669e-01
2.774630398655717478e-01
2.394856185864077669e-01
2.015081973072437860e-01
1.255533547489159629e-01
2.394856185864077669e-01
2.774630398655717478e-01
5.053275675405553002e-01
5.812824100988831511e-01
6.192598313780470765e-01
7.331920952155388527e-01
7.331920952155388527e-01
6.572372526572108908e-01
6.192598313780470765e-01
6.192598313780470765e-01
6.952146739363749273e-01
8.091469377738668145e-01
9.230792016113584797e-01
1.037011465448850256e+00
9.990340441696864415e-01
1.074988886728014181e+00
9.990340441696864415e-01
1.037011465448850256e+00
1.150943729286342032e+00
1.112966308007178107e+00
1.074988886728014181e+00
1.226898571844669883e+00
1.264875993123834030e+00
1.340830835682161659e+00
1.226898571844669883e+00
1.378808256961325585e+00
1.226898571844669883e+00
1.226898571844669883e+00
1.188921150565505958e+00
1.037011465448850256e+00
9.990340441696864415e-01
1.037011465448850256e+00
1.150943729286342032e+00
1.037011465448850256e+00
1.074988886728014181e+00
1.037011465448850256e+00
1.074988886728014181e+00
7.331920952155388527e-01
6.952146739363749273e-01
6.572372526572108908e-01
5.433049888197191146e-01
5.433049888197191146e-01
5.812824100988831511e-01
5.433049888197191146e-01
5.053275675405553002e-01
4.293727249822273939e-01
3.154404611447355622e-01
2.394856185864077669e-01
8.757593346975200976e-02
-6.433375164690367798e-02
-2.162434367635593935e-01
-2.162434367635593935e-01
-2.921982793218872443e-01
-2.162434367635593935e-01
-2.162434367635593935e-01
-2.542208580427233189e-01
-3.681531218802151506e-01
-4.441079644385430014e-01
-4.820853857177069268e-01
-5.960176495551986475e-01
-6.339950708343626840e-01
-6.339950708343626840e-01
-5.200628069968709077e-01
-5.200628069968709077e-01
-4.061305431593790760e-01
-4.061305431593790760e-01
-5.200628069968709077e-01
-5.580402282760348331e-01
-6.719724921135264983e-01
-6.719724921135264983e-01
-5.960176495551986475e-01
-5.580402282760348331e-01
-5.960176495551986475e-01
-6.339950708343626840e-01
-6.719724921135264983e-01
-6.719724921135264983e-01
-8.238821772301823110e-01
-8.238821772301823110e-01
-7.859047559510183856e-01
-8.238821772301823110e-01
-8.238821772301823110e-01
-7.099499133926905348e-01
-6.719724921135264983e-01
-6.719724921135264983e-01
-6.339950708343626840e-01
-5.960176495551986475e-01
-6.339950708343626840e-01
-7.099499133926905348e-01
-7.479273346718544602e-01
-8.618595985093462364e-01
-7.859047559510183856e-01
-7.099499133926905348e-01
-6.719724921135264983e-01
-5.200628069968709077e-01
-4.061305431593790760e-01
-4.441079644385430014e-01
-5.960176495551986475e-01
-7.859047559510183856e-01
-7.859047559510183856e-01
-8.238821772301823110e-01
-6.719724921135264983e-01
-5.960176495551986475e-01
-4.061305431593790760e-01
-5.200628069968709077e-01
-4.441079644385430014e-01
-4.441079644385430014e-01
-5.580402282760348331e-01
-6.719724921135264983e-01
-7.479273346718544602e-01
-7.859047559510183856e-01
-7.479273346718544602e-01
-5.960176495551986475e-01
-5.580402282760348331e-01
-5.580402282760348331e-01
-4.441079644385430014e-01
-3.301757006010512252e-01
-5.200628069968709077e-01
-5.960176495551986475e-01
-6.339950708343626840e-01
-7.479273346718544602e-01
-7.479273346718544602e-01
-6.339950708343626840e-01
-5.200628069968709077e-01
-5.200628069968709077e-01
-4.061305431593790760e-01
-3.681531218802151506e-01
-4.820853857177069268e-01
-5.200628069968709077e-01
-5.960176495551986475e-01
-6.339950708343626840e-01
-6.339950708343626840e-01
-4.820853857177069268e-01
-4.820853857177069268e-01
-4.820853857177069268e-01
-4.441079644385430014e-01
-3.301757006010512252e-01
-5.580402282760348331e-01
-5.200628069968709077e-01
-5.580402282760348331e-01
-6.339950708343626840e-01
-5.200628069968709077e-01
-5.200628069968709077e-01
-3.681531218802151506e-01
-4.441079644385430014e-01
-3.681531218802151506e-01
-3.681531218802151506e-01
-4.441079644385430014e-01
-5.580402282760348331e-01
-5.580402282760348331e-01
-6.339950708343626840e-01
-6.719724921135264983e-01
-5.580402282760348331e-01
-4.820853857177069268e-01
-4.441079644385430014e-01
-4.441079644385430014e-01
-4.820853857177069268e-01
-5.200628069968709077e-01
-7.099499133926905348e-01
-7.099499133926905348e-01
-7.859047559510183856e-01
-7.099499133926905348e-01
-5.200628069968709077e-01
-4.820853857177069268e-01
-3.301757006010512252e-01
-4.441079644385430014e-01
-4.441079644385430014e-01
-5.580402282760348331e-01
-6.719724921135264983e-01
-7.859047559510183856e-01
-8.238821772301823110e-01
-5.580402282760348331e-01
-5.960176495551986475e-01
-5.580402282760348331e-01
-5.960176495551986475e-01
-4.820853857177069268e-01
-5.200628069968709077e-01
-6.339950708343626840e-01
-6.719724921135264983e-01
-7.479273346718544602e-01
-7.859047559510183856e-01
-7.479273346718544602e-01
-7.099499133926905348e-01
-6.339950708343626840e-01
-5.580402282760348331e-01
-4.820853857177069268e-01
-5.960176495551986475e-01
-6.719724921135264983e-01
-6.339950708343626840e-01
-7.099499133926905348e-01
-7.859047559510183856e-01
-5.960176495551986475e-01
-5.580402282760348331e-01
-4.820853857177069268e-01
-4.441079644385430014e-01
-5.580402282760348331e-01
-5.580402282760348331e-01
-6.719724921135264983e-01
-6.719724921135264983e-01
-7.479273346718544602e-01
-7.479273346718544602e-01
-7.479273346718544602e-01
-7.099499133926905348e-01
-4.441079644385430014e-01
-4.820853857177069268e-01
-3.681531218802151506e-01
-5.580402282760348331e-01
-7.099499133926905348e-01
-7.479273346718544602e-01
-7.859047559510183856e-01
-8.238821772301823110e-01
-7.099499133926905348e-01
-6.339950708343626840e-01
-4.441079644385430014e-01
-4.441079644385430014e-01
-4.441079644385430014e-01
-4.820853857177069268e-01
-5.960176495551986475e-01
-6.719724921135264983e-01
-7.099499133926905348e-01
-8.618595985093462364e-01
-8.238821772301823110e-01
-7.859047559510183856e-01
-7.099499133926905348e-01
-5.200628069968709077e-01
-5.200628069968709077e-01
-6.719724921135264983e-01
-6.719724921135264983e-01
-7.479273346718544602e-01
-8.238821772301823110e-01
-8.238821772301823110e-01
-7.479273346718544602e-01
-5.960176495551986475e-01
-5.200628069968709077e-01
-4.441079644385430014e-01
-5.200628069968709077e-01
-5.200628069968709077e-01
-5.580402282760348331e-01
-5.960176495551986475e-01
-7.099499133926905348e-01
-7.099499133926905348e-01
-5.580402282760348331e-01
-5.200628069968709077e-01
-4.820853857177069268e-01
-4.061305431593790760e-01
-3.681531218802151506e-01
-4.820853857177069268e-01
-5.200628069968709077e-01
-5.580402282760348331e-01
-6.339950708343626840e-01
-5.960176495551986475e-01
-6.339950708343626840e-01
-4.441079644385430014e-01
-2.162434367635593935e-01
-1.782660154843954681e-01
-1.023111729260676173e-01
-2.635633036773977339e-02
1.162109091142419018e-02
-2.635633036773977339e-02
1.162109091142419018e-02
-6.433375164690367798e-02
4.959851219058809824e-02
8.757593346975200976e-02
1.635307760280798883e-01
2.394856185864077669e-01
3.154404611447355622e-01
2.394856185864077669e-01
1.635307760280798883e-01
8.757593346975200976e-02
4.959851219058809824e-02
1.635307760280798883e-01
2.394856185864077669e-01
4.293727249822273939e-01
5.433049888197191146e-01
6.952146739363749273e-01
7.331920952155388527e-01
4.673501462613913193e-01
4.293727249822273939e-01
5.053275675405553002e-01
4.293727249822273939e-01
4.673501462613913193e-01
5.053275675405553002e-01
5.812824100988831511e-01
6.952146739363749273e-01
7.711695164947027781e-01
8.471243590530305179e-01
8.471243590530305179e-01
7.331920952155388527e-01
7.711695164947027781e-01
6.572372526572108908e-01
6.952146739363749273e-01
6.952146739363749273e-01
7.711695164947027781e-01
8.471243590530305179e-01
9.230792016113584797e-01
1.037011465448850256e+00
9.610566228905224051e-01
9.990340441696864415e-01
9.990340441696864415e-01
9.230792016113584797e-01
9.230792016113584797e-01
9.610566228905224051e-01
9.230792016113584797e-01
9.990340441696864415e-01
1.112966308007178107e+00
9.990340441696864415e-01
9.610566228905224051e-01
9.610566228905224051e-01
9.610566228905224051e-01
8.091469377738668145e-01
7.331920952155388527e-01
8.091469377738668145e-01
8.091469377738668145e-01
7.711695164947027781e-01
7.711695164947027781e-01
